Sample E1,,Sample E2,,Sample E3,,Sample E4,,Sample E5,,Sample E6,,Sample E7,,Sample E8,,Sample E9,,Sample E10,,
Wavelength (nm),Intensity (a.u.),Wavelength (nm),Intensity (a.u.),Wavelength (nm),Intensity (a.u.),Wavelength (nm),Intensity (a.u.),Wavelength (nm),Intensity (a.u.),Wavelength (nm),Intensity (a.u.),Wavelength (nm),Intensity (a.u.),Wavelength (nm),Intensity (a.u.),Wavelength (nm),Intensity (a.u.),Wavelength (nm),Intensity (a.u.),
400,23.1580677,400,22.67450333,400,20.99534988,400,24.39941406,400,21.73326874,400,22.18191719,400,21.45033264,400,21.96455002,400,21.26466751,400,5.864039421,
401.0700073,26.17760658,401.0700073,25.20877266,401.0700073,22.57129097,401.0700073,26.4889183,401.0700073,25.88333511,401.0700073,24.1928997,401.0700073,24.72782326,401.0700073,24.80854607,401.0700073,23.26312447,401.0700073,6.114889622,
402,27.98396301,402,26.76561928,402,25.22867203,402,28.60555267,402,26.90501785,402,27.06552696,402,25.98953247,402,26.36062813,402,26.44705963,402,5.6978302,
403.0700073,30.23702431,403.0700073,30.61998177,403.0700073,27.37415886,403.0700073,30.62048149,403.0700073,29.30883598,403.0700073,28.63565445,403.0700073,28.66815758,403.0700073,29.86488533,403.0700073,27.30057144,403.0700073,5.821261883,
404,32.34809494,404,32.46408844,404,30.14450836,404,32.1388588,404,32.12634659,404,30.97776985,404,31.08888626,404,31.75978279,404,29.64259338,404,6.691121101,
405.0700073,36.04796219,405.0700073,35.05541992,405.0700073,33.15021896,405.0700073,35.47701645,405.0700073,35.46874237,405.0700073,34.6341629,405.0700073,33.2936058,405.0700073,35.25143433,405.0700073,33.12424088,405.0700073,6.607674122,
406,38.75834274,406,38.25444412,406,35.58771515,406,38.12852478,406,38.6537056,406,37.93651199,406,37.59426498,406,35.70435333,406,36.4768219,406,6.685432911,
407.0700073,40.98232651,407.0700073,41.48068619,407.0700073,37.96936035,407.0700073,41.6267128,407.0700073,42.36486816,407.0700073,38.97634125,407.0700073,40.13043213,407.0700073,41.56798553,407.0700073,39.41970825,407.0700073,7.006726265,
408,44.17802811,408,45.31615067,408,41.64169693,408,44.64916229,408,45.09589005,408,42.20478821,408,42.23331451,408,45.18459702,408,42.34230804,408,7.249334335,
409.0700073,47.12939453,409.0700073,48.22740173,409.0700073,44.23251724,409.0700073,46.77231598,409.0700073,48.95733643,409.0700073,46.0431633,409.0700073,46.26223755,409.0700073,49.56448364,409.0700073,44.59848022,409.0700073,7.41503191,
410,49.85415649,410,52.70638275,410,48.42633438,410,50.69299698,410,52.21977997,410,49.91791534,410,50.4264679,410,51.34243774,410,49.05638885,410,7.908759594,
411.0599976,55.12133408,411.0599976,56.95162201,411.0599976,52.59821701,411.0599976,55.00753021,411.0599976,54.66741943,411.0599976,53.87760544,411.0599976,54.89913559,411.0599976,55.74424362,411.0599976,52.06255722,411.0599976,8.113019943,
411.9599915,57.44000626,411.9599915,60.545681,411.9599915,55.37853241,411.9599915,57.5021286,411.9599915,61.42266464,411.9599915,56.59729767,411.9599915,57.23009109,411.9599915,59.78483963,411.9599915,56.80779266,411.9599915,7.900383472,
413.0299988,61.67391968,413.0299988,63.30469894,413.0299988,58.57313919,413.0299988,60.34783554,413.0299988,64.10804749,413.0299988,59.06402588,413.0299988,62.1235733,413.0299988,63.10842896,413.0299988,59.5420723,413.0299988,7.789877415,
413.9299927,64.66507721,413.9299927,67.99658966,413.9299927,62.68302917,413.9299927,64.5987854,413.9299927,65.01815796,413.9299927,63.01081085,413.9299927,66.01765442,413.9299927,67.74292755,413.9299927,63.73223495,413.9299927,8.466382027,
415,67.6081543,415,71.32444,415,66.320961,415,68.4473114,415,71.36071014,415,68.0173111,415,69.46630859,415,72.10583496,415,66.75125885,415,8.631820679,
416.0599976,75.21144867,416.0599976,75.77415466,416.0599976,71.22747803,416.0599976,75.21013641,416.0599976,75.60913086,416.0599976,72.68558502,416.0599976,75.20993042,416.0599976,78.81323242,416.0599976,74.13620758,416.0599976,8.577368736,
416.9599915,75.22225189,416.9599915,79.40188599,416.9599915,76.19777679,416.9599915,74.96755981,416.9599915,77.6558075,416.9599915,74.41083527,416.9599915,76.37742615,416.9599915,77.48174286,416.9599915,74.36790466,416.9599915,9.290299416,
418.0299988,79.54894257,418.0299988,82.91287231,418.0299988,78.23673248,418.0299988,83.32010651,418.0299988,83.49308014,418.0299988,79.96028137,418.0299988,80.72081757,418.0299988,87.12416077,418.0299988,79.17256165,418.0299988,9.163059235,
418.9299927,81.95888519,418.9299927,85.70230865,418.9299927,83.59105682,418.9299927,84.4420929,418.9299927,86.83158875,418.9299927,83.8475647,418.9299927,83.36231995,418.9299927,87.52038574,418.9299927,81.6473465,418.9299927,9.148566246,
420,88.28965759,420,92.29116821,420,86.10218811,420,87.33791351,420,88.39746094,420,91.02928925,420,91.21331024,420,93.53517914,420,86.38038635,420,9.274142265,
421.0700073,91.46707153,421.0700073,95.22898102,421.0700073,89.52510071,421.0700073,92.92926025,421.0700073,93.35928345,421.0700073,91.64591217,421.0700073,96.12244415,421.0700073,97.45256805,421.0700073,90.4143219,421.0700073,9.461245537,
422,93.07976532,422,96.11447906,422,93.71113586,422,95.16096497,422,95.91255951,422,95.80993652,422,95.16871643,422,101.3400345,422,91.63803101,422,9.360404968,
423.0700073,99.58570099,423.0700073,103.3752289,423.0700073,95.49204254,423.0700073,98.14338684,423.0700073,101.1800842,423.0700073,97.87647247,423.0700073,100.381073,423.0700073,102.9995651,423.0700073,97.48262024,423.0700073,9.62185955,
424,98.96432495,424,103.7957001,424,97.63762665,424,102.8981628,424,102.6780624,424,100.8502579,424,104.3935471,424,105.6496658,424,98.19670105,424,8.923213959,
425.0700073,100.2609634,425.0700073,106.5808716,425.0700073,100.8501511,425.0700073,105.0810623,425.0700073,103.9323807,425.0700073,104.2615509,425.0700073,104.7856903,425.0700073,110.7524338,425.0700073,102.4696655,425.0700073,8.653810501,
426,105.4018402,426,107.3503494,426,105.9950027,426,107.7995377,426,105.8560791,426,106.5024567,426,109.1615448,426,112.0108185,426,107.4586716,426,9.256446838,
427.0700073,108.4697876,427.0700073,113.6983337,427.0700073,103.8907089,427.0700073,110.2618332,427.0700073,110.819046,427.0700073,107.6207428,427.0700073,114.7501297,427.0700073,119.2845535,427.0700073,108.2612457,427.0700073,8.630223274,
428,109.0318375,428,113.0424652,428,110.0859375,428,111.7694244,428,112.1312485,428,108.946907,428,117.0131989,428,118.1427536,428,110.0649643,428,9.045866966,
429.0700073,110.3485413,429.0700073,112.5714188,429.0700073,111.1806335,429.0700073,115.8084488,429.0700073,118.2185364,429.0700073,115.415657,429.0700073,114.8181686,429.0700073,121.7714767,429.0700073,110.8746567,429.0700073,8.759648323,
430,115.3532181,430,117.2754517,430,115.5826797,430,118.816391,430,119.9679718,430,114.6294098,430,117.7959366,430,125.0460892,430,112.85186,430,8.713253021,
431.0599976,118.395256,431.0599976,123.5627975,431.0599976,114.360527,431.0599976,115.8739777,431.0599976,117.7256317,431.0599976,119.3581161,431.0599976,121.0383835,431.0599976,127.8330841,431.0599976,117.2773819,431.0599976,8.955685616,
431.9599915,118.0799789,431.9599915,119.9564209,431.9599915,117.5224609,431.9599915,122.8211517,431.9599915,120.626564,431.9599915,119.4743805,431.9599915,120.5315323,431.9599915,127.5066452,431.9599915,114.9137726,431.9599915,8.356863022,
433.0299988,122.0116959,433.0299988,122.5149536,433.0299988,118.2086258,433.0299988,120.7623215,433.0299988,125.6829681,433.0299988,124.0147934,433.0299988,127.0906296,433.0299988,128.1450806,433.0299988,121.8331375,433.0299988,7.992443562,
433.9299927,122.8774948,433.9299927,124.7860413,433.9299927,121.8194885,433.9299927,124.5606918,433.9299927,125.9993286,433.9299927,122.3368683,433.9299927,129.00914,433.9299927,134.8012543,433.9299927,122.0616302,433.9299927,8.57937336,
435,122.2354813,435,125.4390793,435,125.3026733,435,128.5562592,435,126.8944321,435,123.8718567,435,128.7944489,435,134.8383484,435,123.9526062,435,8.951828957,
436.0599976,124.8310318,436.0599976,130.5544891,436.0599976,126.197052,436.0599976,128.2875214,436.0599976,127.1270218,436.0599976,129.127655,436.0599976,128.7015533,436.0599976,139.9412689,436.0599976,126.1424866,436.0599976,9.093340874,
436.9599915,129.6807556,436.9599915,129.013382,436.9599915,125.0184937,436.9599915,127.6618576,436.9599915,128.6685028,436.9599915,127.2280197,436.9599915,133.1084747,436.9599915,138.9864349,436.9599915,125.83004,436.9599915,9.149849892,
438.0299988,129.3626099,438.0299988,132.6388092,438.0299988,130.3799438,438.0299988,134.5902863,438.0299988,132.1620178,438.0299988,132.32901,438.0299988,136.9416962,438.0299988,142.8729706,438.0299988,129.0274506,438.0299988,9.827065468,
438.9299927,131.6802521,438.9299927,134.3562164,438.9299927,132.8159943,438.9299927,133.6592712,438.9299927,134.2743835,438.9299927,130.5037842,438.9299927,136.4064636,438.9299927,141.180542,438.9299927,133.473938,438.9299927,9.788608551,
440,135.5312042,440,138.7721863,440,132.1761932,440,133.128479,440,136.1195221,440,133.2597351,440,137.2960358,440,141.0956268,440,132.0457153,440,9.966173172,
441.0700073,138.1984253,441.0700073,139.0737915,441.0700073,132.8567047,441.0700073,136.8372498,441.0700073,139.2717285,441.0700073,137.9956055,441.0700073,139.0474243,441.0700073,145.4775848,441.0700073,130.7387695,441.0700073,10.67930698,
442,136.0678101,442,141.9851074,442,134.6544189,442,137.8378448,442,136.9145508,442,138.6355286,442,141.5325623,442,150.1928253,442,137.9310303,442,10.58269501,
443.0700073,139.8432922,443.0700073,144.9226532,443.0700073,135.278717,443.0700073,145.4898071,443.0700073,142.2377472,443.0700073,140.403183,443.0700073,147.7291107,443.0700073,146.2546692,443.0700073,135.832962,443.0700073,11.16071415,
444,139.9049988,444,137.9862823,444,141.6312103,444,142.0001068,444,144.7076416,444,144.8577881,444,148.0346375,444,150.8849487,444,140.4566193,444,11.55612946,
445.0700073,142.0363312,445.0700073,147.9676666,445.0700073,142.8417969,445.0700073,146.8625031,445.0700073,144.5561218,445.0700073,142.5205536,445.0700073,148.1094818,445.0700073,150.0709229,445.0700073,141.2712097,445.0700073,12.40849209,
446,142.4501953,446,147.3085022,446,141.0859375,446,144.6512451,446,145.677002,446,144.9300232,446,152.8907928,446,157.1385193,446,144.363739,446,12.53601742,
447.0700073,144.243515,447.0700073,149.5444946,447.0700073,145.212326,447.0700073,148.7050476,447.0700073,150.5266724,447.0700073,145.583252,447.0700073,154.5048218,447.0700073,161.0976257,447.0700073,148.3313751,447.0700073,12.172719,
448,145.3644409,448,148.7679443,448,142.46492,448,150.663147,448,150.8791656,448,151.3794708,448,154.3293304,448,161.1624298,448,146.9087524,448,13.45236397,
449.0700073,149.4223938,449.0700073,152.4947205,449.0700073,144.4030914,449.0700073,155.2683105,449.0700073,151.4657745,449.0700073,150.3006439,449.0700073,152.6870422,449.0700073,159.2261963,449.0700073,147.529541,449.0700073,12.30047226,
450,148.7598877,450,152.4367371,450,147.0488281,450,149.6475983,450,154.941391,450,152.7731171,450,158.4673309,450,161.1030579,450,149.1221466,450,12.57063389,
451.0599976,150.0372009,451.0599976,154.0525665,451.0599976,149.5271301,451.0599976,151.9380188,451.0599976,152.6444244,451.0599976,153.2280579,451.0599976,158.2950287,451.0599976,160.6482849,451.0599976,148.6672058,451.0599976,12.75979233,
451.9599915,151.8091583,451.9599915,154.5411377,451.9599915,149.1475372,451.9599915,153.4344025,451.9599915,157.1783295,451.9599915,151.8914948,451.9599915,160.4271545,451.9599915,164.8058167,451.9599915,150.0293732,451.9599915,12.4281044,
453.0299988,149.1231232,453.0299988,154.6490784,453.0299988,151.2015228,453.0299988,157.2064362,453.0299988,158.3015594,453.0299988,152.6431427,453.0299988,161.4398804,453.0299988,166.3782806,453.0299988,151.4974365,453.0299988,11.45167255,
453.9299927,153.2282562,453.9299927,157.7302399,453.9299927,150.9253235,453.9299927,156.9525604,453.9299927,155.7214508,453.9299927,154.2693787,453.9299927,161.439682,453.9299927,164.351944,453.9299927,151.9118042,453.9299927,11.37926102,
455,149.8006439,455,157.2498016,455,149.6319275,455,162.7825012,455,152.0211792,455,155.0887604,455,160.2646484,455,166.0371857,455,151.8482056,455,11.27635765,
456.0599976,151.2440643,456.0599976,157.3315582,456.0599976,150.7202454,456.0599976,159.5961456,456.0599976,159.9921112,456.0599976,156.8372955,456.0599976,157.958847,456.0599976,166.3472137,456.0599976,153.3913879,456.0599976,10.41991901,
456.9599915,151.8092804,456.9599915,156.7773438,456.9599915,149.2359314,456.9599915,162.9936829,456.9599915,160.0722809,456.9599915,160.8158875,456.9599915,162.3820953,456.9599915,165.5922241,456.9599915,157.3712769,456.9599915,9.974053383,
458.0299988,158.402359,458.0299988,158.0726929,458.0299988,155.5360413,458.0299988,158.5363617,458.0299988,156.5746765,458.0299988,159.5990295,458.0299988,161.9133911,458.0299988,168.0029907,458.0299988,150.5274353,458.0299988,9.974884987,
458.9299927,154.2935028,458.9299927,162.1007233,458.9299927,153.4143829,458.9299927,161.2745056,458.9299927,159.9575958,458.9299927,156.6013031,458.9299927,162.8166199,458.9299927,168.7584229,458.9299927,158.1844635,458.9299927,9.779526711,
460,154.4286499,460,157.9367676,460,156.4303436,460,161.2937317,460,162.0804443,460,161.553009,460,161.6838684,460,166.6824036,460,160.9935913,460,8.813984871,
461.0599976,151.1085815,461.0599976,158.5311737,461.0599976,152.5457306,461.0599976,161.3887482,461.0599976,158.19664,461.0599976,159.8862457,461.0599976,164.9984589,461.0599976,173.096817,461.0599976,161.2550964,461.0599976,7.950792313,
461.9599915,154.336319,461.9599915,155.6746979,461.9599915,155.2081757,461.9599915,162.5991669,461.9599915,165.5157928,461.9599915,164.1791077,461.9599915,166.2800903,461.9599915,169.3969421,461.9599915,156.8498077,461.9599915,7.847312927,
463.0299988,155.0527649,463.0299988,158.9091492,463.0299988,156.9837646,463.0299988,161.1955109,463.0299988,162.1818237,463.0299988,161.8308716,463.0299988,169.1224518,463.0299988,171.7168274,463.0299988,155.1075134,463.0299988,7.749063969,
463.9299927,156.3315277,463.9299927,156.9508514,463.9299927,154.4616852,463.9299927,162.3343658,463.9299927,163.0730591,463.9299927,160.7167664,463.9299927,166.7602539,463.9299927,168.4056854,463.9299927,157.8092346,463.9299927,7.221946239,
465,159.1620178,465,159.6818237,465,153.0461578,465,164.3574066,465,161.5795593,465,162.3076019,465,165.0260315,465,173.4338226,465,162.205368,465,7.063378811,
466.0599976,155.0502319,466.0599976,161.9934235,466.0599976,152.448822,466.0599976,163.0705414,466.0599976,165.5579376,466.0599976,159.4477844,466.0599976,168.3022614,466.0599976,169.745163,466.0599976,162.8363647,466.0599976,6.851430893,
466.9599915,155.3621216,466.9599915,165.3058777,466.9599915,153.8012543,466.9599915,161.7986145,466.9599915,161.8921967,466.9599915,163.3741455,466.9599915,167.4083557,466.9599915,172.9199371,466.9599915,162.7530823,466.9599915,6.408671856,
468.0299988,157.1669769,468.0299988,163.390152,468.0299988,159.7093048,468.0299988,167.022995,468.0299988,166.8262024,468.0299988,162.2152863,468.0299988,170.8982697,468.0299988,172.6522217,468.0299988,163.2380524,468.0299988,6.247499943,
468.9299927,155.9640198,468.9299927,156.7282867,468.9299927,155.9627991,468.9299927,165.7863159,468.9299927,165.8501892,468.9299927,162.7137299,468.9299927,171.3882599,468.9299927,178.70224,468.9299927,164.4404602,468.9299927,6.466939449,
470,153.946991,470,158.4468384,470,156.3778534,470,159.3868561,470,162.9522552,470,164.3512268,470,173.1725159,470,175.917923,470,167.1697998,470,6.553007126,
471.0599976,160.1345367,471.0599976,162.3048553,471.0599976,160.0152283,471.0599976,167.5283356,471.0599976,161.8216858,471.0599976,163.319809,471.0599976,165.8561096,471.0599976,176.5014038,471.0599976,164.7852325,471.0599976,6.277083397,
471.9599915,155.907135,471.9599915,165.6325073,471.9599915,156.8747559,471.9599915,164.0050659,471.9599915,166.9493713,471.9599915,161.2032166,471.9599915,168.3698425,471.9599915,174.2488403,471.9599915,164.2858429,471.9599915,6.568205833,
473.0299988,159.974884,473.0299988,162.6336975,473.0299988,157.4849396,473.0299988,167.8999786,473.0299988,164.2829132,473.0299988,163.3312683,473.0299988,172.8840179,473.0299988,177.0046844,473.0299988,165.3848267,473.0299988,6.51164484,
473.9299927,158.6684723,473.9299927,163.4666595,473.9299927,158.9534912,473.9299927,165.4462128,473.9299927,166.3834534,473.9299927,164.3101349,473.9299927,173.3800659,473.9299927,174.1067963,473.9299927,165.6003723,473.9299927,6.366095543,
475,159.8851013,475,165.844635,475,158.4720917,475,168.1183777,475,166.265152,475,168.5602264,475,166.588974,475,179.8126831,475,162.4663391,475,6.028397083,
476.0599976,159.7469177,476.0599976,163.8304596,476.0599976,159.7254333,476.0599976,164.9488831,476.0599976,168.8520813,476.0599976,165.6956177,476.0599976,176.842865,476.0599976,180.9611359,476.0599976,165.0086365,476.0599976,6.723917484,
476.9599915,158.0523224,476.9599915,164.2645874,476.9599915,162.0823364,476.9599915,165.8851166,476.9599915,163.0046234,476.9599915,164.9678802,476.9599915,170.6972961,476.9599915,185.3924561,476.9599915,165.4773254,476.9599915,6.130377293,
478.0299988,159.7433319,478.0299988,162.0614929,478.0299988,157.7358551,478.0299988,168.3125,478.0299988,167.5184174,478.0299988,167.7614899,478.0299988,171.2680511,478.0299988,176.8825073,478.0299988,166.2484283,478.0299988,6.655398369,
478.9299927,155.9069824,478.9299927,163.1637421,478.9299927,161.1772308,478.9299927,164.9975433,478.9299927,168.6389465,478.9299927,163.9620819,478.9299927,173.7537231,478.9299927,180.3139191,478.9299927,163.9168701,478.9299927,6.554524422,
480,156.7854462,480,163.5089111,480,159.3580627,480,168.2851563,480,165.0590973,480,166.3573761,480,173.1915283,480,175.493042,480,164.9885101,480,6.42616415,
481.0599976,158.8934937,481.0599976,165.3059692,481.0599976,160.1147614,481.0599976,164.9719238,481.0599976,165.7822876,481.0599976,164.7798004,481.0599976,173.4449158,481.0599976,180.3243103,481.0599976,162.9741211,481.0599976,6.520586491,
481.9599915,160.8878784,481.9599915,159.9752808,481.9599915,159.838623,481.9599915,166.7742615,481.9599915,164.3881073,481.9599915,166.8216248,481.9599915,170.6616364,481.9599915,179.005722,481.9599915,171.250473,481.9599915,6.759801865,
483.0299988,161.150528,483.0299988,163.0059052,483.0299988,163.5624542,483.0299988,162.0569305,483.0299988,163.9948578,483.0299988,164.9882813,483.0299988,171.1474762,483.0299988,178.647644,483.0299988,166.6938934,483.0299988,6.447705746,
483.9299927,158.7388306,483.9299927,163.589447,483.9299927,162.5588226,483.9299927,168.4882965,483.9299927,167.8138275,483.9299927,167.1483917,483.9299927,171.3925476,483.9299927,178.2354736,483.9299927,167.2038422,483.9299927,6.753016949,
485,159.5459747,485,163.1798401,485,156.2166443,485,165.6812134,485,168.100235,485,165.0748596,485,170.0574036,485,173.5972748,485,161.454834,485,6.402545452,
486.0599976,157.3925018,486.0599976,159.8865662,486.0599976,159.5199432,486.0599976,167.2940826,486.0599976,163.4392242,486.0599976,165.4846802,486.0599976,164.4085541,486.0599976,175.8135223,486.0599976,161.6598969,486.0599976,6.396661282,
486.9599915,158.6134949,486.9599915,158.2417908,486.9599915,157.6179047,486.9599915,169.9868317,486.9599915,158.7975006,486.9599915,158.7431488,486.9599915,171.4452209,486.9599915,171.7041931,486.9599915,162.5142822,486.9599915,6.558251858,
488.0299988,152.5066223,488.0299988,162.6622009,488.0299988,157.785614,488.0299988,161.8120728,488.0299988,157.0295715,488.0299988,158.6026154,488.0299988,162.3179626,488.0299988,171.8259125,488.0299988,162.0015411,488.0299988,5.963311195,
488.9299927,150.7555847,488.9299927,158.3970184,488.9299927,156.2310638,488.9299927,162.461792,488.9299927,161.1826324,488.9299927,159.1881256,488.9299927,162.7475281,488.9299927,173.6977692,488.9299927,161.9964905,488.9299927,5.761089802,
490,152.1555634,490,155.3427582,490,152.2925262,490,158.7905579,490,159.3286285,490,162.7550507,490,165.023056,490,171.3912506,490,161.0343475,490,5.38841486,
491.0400085,151.4418488,491.0400085,150.6373596,491.0400085,145.3446045,491.0400085,157.5741425,491.0400085,153.9542999,491.0400085,153.2286377,491.0400085,159.5683899,491.0400085,168.9817505,491.0400085,154.5350189,491.0400085,4.724526882,
491.9400024,148.8858185,491.9400024,151.5991974,491.9400024,145.300705,491.9400024,154.1347656,491.9400024,152.6536865,491.9400024,158.4667358,491.9400024,156.3630829,491.9400024,166.6167603,491.9400024,157.6800385,491.9400024,5.013168812,
492.980011,149.6804962,492.980011,151.088913,492.980011,148.556427,492.980011,150.9707794,492.980011,148.329895,492.980011,150.3003693,492.980011,159.8639526,492.980011,165.9494019,492.980011,152.5710907,492.980011,4.770197392,
494.019989,141.5709686,494.019989,147.427002,494.019989,148.9444122,494.019989,148.7882538,494.019989,150.895874,494.019989,149.8261108,494.019989,155.5036316,494.019989,164.7636108,494.019989,149.9135742,494.019989,4.332158089,
495.0700073,139.1777344,495.0700073,148.4198303,495.0700073,142.2913361,495.0700073,146.4524841,495.0700073,148.890274,495.0700073,146.0329742,495.0700073,154.9119415,495.0700073,158.7664032,495.0700073,146.2077179,495.0700073,4.282341957,
495.9700012,138.7819214,495.9700012,142.5259247,495.9700012,143.1885223,495.9700012,149.5553741,495.9700012,148.183197,495.9700012,147.4061279,495.9700012,151.1655273,495.9700012,152.6905975,495.9700012,149.3617706,495.9700012,3.973510027,
497.0100098,135.9212494,497.0100098,143.5957336,497.0100098,137.7623749,497.0100098,142.9519043,497.0100098,146.2887573,497.0100098,147.0572357,497.0100098,150.6963501,497.0100098,158.5992889,497.0100098,144.3520355,497.0100098,3.582525969,
498.0499878,134.4976501,498.0499878,136.4395905,498.0499878,137.4252319,498.0499878,139.5744629,498.0499878,140.7000122,498.0499878,145.2185211,498.0499878,146.8419647,498.0499878,153.8612671,498.0499878,142.0393829,498.0499878,3.10458684,
498.9500122,131.9720306,498.9500122,137.4039917,498.9500122,134.0364685,498.9500122,140.9306335,498.9500122,141.8427429,498.9500122,140.4035797,498.9500122,143.7770538,498.9500122,148.3914337,498.9500122,139.5269318,498.9500122,3.595388174,
500,129.5731964,500,135.6158905,500,130.1225433,500,136.6592102,500,140.3493958,500,137.049408,500,142.7534485,500,153.9510345,500,137.8866272,500,3.144955397,
501.0599976,131.2644501,501.0599976,132.5222473,501.0599976,134.5979919,501.0599976,132.9030609,501.0599976,139.0301971,501.0599976,136.3974152,501.0599976,137.9088593,501.0599976,146.8703918,501.0599976,136.3441772,501.0599976,3.062034607,
501.9599915,124.834549,501.9599915,132.9546814,501.9599915,128.6996765,501.9599915,134.7113037,501.9599915,131.3486023,501.9599915,131.997818,501.9599915,137.9108734,501.9599915,143.0304718,501.9599915,135.6381073,501.9599915,2.835170746,
503.0299988,123.515625,503.0299988,124.5131302,503.0299988,126.480896,503.0299988,130.3862305,503.0299988,129.0499878,503.0299988,132.0552673,503.0299988,133.8786469,503.0299988,143.3508911,503.0299988,132.7729645,503.0299988,2.804059744,
503.9299927,124.2237167,503.9299927,126.0443497,503.9299927,124.8452072,503.9299927,130.8667297,503.9299927,128.941803,503.9299927,129.7393799,503.9299927,132.4949341,503.9299927,134.5798645,503.9299927,129.6420746,503.9299927,2.857302904,
505,119.5924072,505,128.5879364,505,122.8862686,505,122.5102081,505,128.1274567,505,126.3126602,505,127.6228104,505,133.9518738,505,125.0073166,505,2.72745347,
506.0599976,116.370697,506.0599976,120.8612213,506.0599976,119.9817734,506.0599976,121.5956879,506.0599976,124.1347122,506.0599976,122.9485855,506.0599976,127.1993256,506.0599976,131.4808655,506.0599976,124.768898,506.0599976,2.771106482,
506.9599915,112.5179443,506.9599915,117.5922012,506.9599915,119.1839066,506.9599915,119.7744064,506.9599915,122.2563629,506.9599915,120.8239746,506.9599915,125.9495926,506.9599915,128.9137115,506.9599915,120.5310211,506.9599915,2.598552465,
508.0299988,114.6453247,508.0299988,117.470108,508.0299988,115.7841415,508.0299988,117.7942123,508.0299988,121.0164261,508.0299988,118.7836838,508.0299988,123.3923492,508.0299988,127.6216507,508.0299988,118.3198776,508.0299988,2.907789469,
508.9299927,110.5473633,508.9299927,114.7121964,508.9299927,113.5178375,508.9299927,116.5965424,508.9299927,114.6061478,508.9299927,115.4636612,508.9299927,121.7635803,508.9299927,126.7116394,508.9299927,114.3516083,508.9299927,2.624094009,
510,107.4124985,510,112.3646774,510,111.399765,510,112.4086456,510,113.6214066,510,115.6695328,510,119.3355942,510,126.3415527,510,118.7984619,510,2.520490646,
511.0400085,104.1539841,511.0400085,110.2923279,511.0400085,106.6368484,511.0400085,112.2604904,511.0400085,114.0318146,511.0400085,110.0293427,511.0400085,115.9341736,511.0400085,122.4347687,511.0400085,112.6473312,511.0400085,2.292046309,
511.9400024,104.8974686,511.9400024,107.0518417,511.9400024,104.4257278,511.9400024,111.1071777,511.9400024,110.8904572,511.9400024,111.3241653,511.9400024,115.0953369,511.9400024,118.3578873,511.9400024,111.4801025,511.9400024,2.276504993,
512.9799805,102.015358,512.9799805,102.444252,512.9799805,101.3633499,512.9799805,107.4890518,512.9799805,108.2776566,512.9799805,104.9627991,512.9799805,108.675415,512.9799805,111.2552261,512.9799805,105.9644699,512.9799805,2.360557318,
514.0200195,95.68543243,514.0200195,103.0379791,514.0200195,100.3421555,514.0200195,104.6606827,514.0200195,103.3650818,514.0200195,105.6231995,514.0200195,110.2952957,514.0200195,111.3807755,514.0200195,104.6392059,514.0200195,1.955016017,
515.0700073,98.11429596,515.0700073,98.9063797,515.0700073,100.2497864,515.0700073,101.7746201,515.0700073,98.75885773,515.0700073,102.6489487,515.0700073,103.3116379,515.0700073,111.8491516,515.0700073,102.2690964,515.0700073,2.322571516,
515.9699707,93.98960876,515.9699707,99.10758209,515.9699707,98.69088745,515.9699707,97.79640198,515.9699707,101.3683777,515.9699707,97.4515686,515.9699707,102.7931595,515.9699707,106.431778,515.9699707,101.8462296,515.9699707,2.015752792,
517.0100098,92.60517883,517.0100098,96.5721283,517.0100098,91.37471771,517.0100098,99.52973938,517.0100098,98.58535767,517.0100098,99.15409088,517.0100098,100.7413483,517.0100098,107.1303406,517.0100098,99.28009796,517.0100098,2.232994795,
518.0499878,88.48970032,518.0499878,93.0873642,518.0499878,90.98327637,518.0499878,97.03469086,518.0499878,95.67731476,518.0499878,92.81558228,518.0499878,97.41972351,518.0499878,101.7753372,518.0499878,94.28865051,518.0499878,2.482377052,
518.9500122,88.76280975,518.9500122,91.66085815,518.9500122,90.75118256,518.9500122,92.7671814,518.9500122,94.46861267,518.9500122,94.69064331,518.9500122,95.70435333,518.9500122,100.8208542,518.9500122,93.36721802,518.9500122,2.369450569,
520,85.67678833,520,90.38465118,520,87.2634964,520,87.2649231,520,90.77458954,520,89.97908783,520,94.07364655,520,97.01143646,520,93.42054749,520,2.586497784,
521.0599976,82.78109741,521.0599976,88.46396637,521.0599976,83.15837097,521.0599976,88.12030029,521.0599976,86.80541992,521.0599976,87.00447083,521.0599976,89.55925751,521.0599976,93.68412781,521.0599976,88.49557495,521.0599976,2.514492035,
521.960022,82.49261475,521.960022,85.98657227,521.960022,81.06543732,521.960022,83.54676819,521.960022,86.03923035,521.960022,85.01035309,521.960022,88.75305939,521.960022,89.79506683,521.960022,84.26364136,521.960022,2.429993153,
523.0300293,78.4101944,523.0300293,81.44382477,523.0300293,80.6530838,523.0300293,84.2026825,523.0300293,84.78222656,523.0300293,85.09224701,523.0300293,86.67417145,523.0300293,90.77458954,523.0300293,81.91320038,523.0300293,2.47424221,
523.9299927,77.89348602,523.9299927,79.19368744,523.9299927,79.37577057,523.9299927,81.13143921,523.9299927,81.84023285,523.9299927,82.97969055,523.9299927,83.64155579,523.9299927,86.33787537,523.9299927,80.42789459,523.9299927,2.419445753,
525,74.55107117,525,80.52825165,525,75.72257996,525,79.52588654,525,77.18201447,525,76.3888855,525,79.81717682,525,82.51283264,525,80.15662384,525,2.428735733,
526.0599976,72.89808655,526.0599976,74.72999573,526.0599976,73.50358582,526.0599976,77.3477478,526.0599976,76.37696838,526.0599976,75.57929993,526.0599976,77.79447937,526.0599976,82.95960236,526.0599976,76.26628113,526.0599976,2.449343204,
526.960022,71.7714386,526.960022,73.18981171,526.960022,71.15925598,526.960022,74.42999268,526.960022,74.31276703,526.960022,73.25790405,526.960022,75.39646149,526.960022,81.13567352,526.960022,73.80961609,526.960022,2.597921848,
528.0300293,67.65865326,528.0300293,71.47422791,528.0300293,69.64097595,528.0300293,72.20054626,528.0300293,70.99991608,528.0300293,73.28144836,528.0300293,74.24668121,528.0300293,75.34609222,528.0300293,72.91456604,528.0300293,2.081053257,
528.9299927,65.32579803,528.9299927,67.62117767,528.9299927,66.81387329,528.9299927,70.48362732,528.9299927,69.68047333,528.9299927,71.99865723,528.9299927,73.61008453,528.9299927,75.15740204,528.9299927,70.47899628,528.9299927,2.350792408,
530,65.89369965,530,66.37459564,530,64.5834198,530,67.75144958,530,67.79478455,530,69.24662018,530,69.99408722,530,70.6254425,530,67.21936798,530,2.257633686,
531.039978,63.97886658,531.039978,64.51430511,531.039978,61.46311951,531.039978,65.05805969,531.039978,64.8615799,531.039978,64.77754211,531.039978,69.31299591,531.039978,72.19169617,531.039978,65.86769867,531.039978,2.17002821,
531.9400024,59.9824028,531.9400024,63.95113373,531.9400024,63.36201859,531.9400024,63.79422379,531.9400024,65.14084625,531.9400024,64.15801239,531.9400024,65.67705536,531.9400024,68.23107147,531.9400024,64.23258972,531.9400024,2.236552715,
532.9799805,59.44533539,532.9799805,59.73420334,532.9799805,60.88189316,532.9799805,62.05744171,532.9799805,61.7264595,532.9799805,61.85192108,532.9799805,63.98169708,532.9799805,66.66667175,532.9799805,61.50781631,532.9799805,2.312160492,
534.0200195,57.63887787,534.0200195,58.51411057,534.0200195,59.81816483,534.0200195,58.829216,534.0200195,61.04918671,534.0200195,60.98374176,534.0200195,60.67794037,534.0200195,64.50120544,534.0200195,60.87468338,534.0200195,2.238939762,
535.0700073,55.19912338,535.0700073,56.89048767,535.0700073,56.26021576,535.0700073,57.57773972,535.0700073,59.19770813,535.0700073,58.00534821,535.0700073,60.97296524,535.0700073,62.35676956,535.0700073,57.78821945,535.0700073,2.475075006,
535.9699707,55.15192032,535.9699707,55.62859344,535.9699707,54.48264313,535.9699707,55.30816269,535.9699707,55.30280304,535.9699707,56.29428482,535.9699707,58.01435471,535.9699707,59.32435989,535.9699707,55.79639816,535.9699707,2.189196348,
537.0100098,53.609478,537.0100098,53.23423767,537.0100098,53.48374939,537.0100098,55.0331192,537.0100098,55.94113922,537.0100098,55.9630394,537.0100098,56.98516083,537.0100098,59.10549164,537.0100098,54.76060104,537.0100098,1.99621594,
538.0499878,51.07978821,538.0499878,52.02084732,538.0499878,51.52570724,538.0499878,54.46847916,538.0499878,53.47101593,538.0499878,52.79576874,538.0499878,54.92111206,538.0499878,56.3457222,538.0499878,53.19128418,538.0499878,2.158460855,
538.9500122,49.25521088,538.9500122,52.52583313,538.9500122,48.84309387,538.9500122,53.12049484,538.9500122,49.31219864,538.9500122,53.59108353,538.9500122,52.35509491,538.9500122,55.64254761,538.9500122,51.46592712,538.9500122,1.900693059,
540,48.57611847,540,48.13082123,540,48.97603226,540,50.91000748,540,49.79029465,540,49.76376724,540,51.12451553,540,53.15666199,540,50.22973633,540,1.926502109,
541.039978,47.20113754,541.039978,48.3707695,541.039978,47.57402039,541.039978,50.03115082,541.039978,48.14139938,541.039978,47.51817322,541.039978,49.90258408,541.039978,49.90923691,541.039978,48.13848877,541.039978,2.090134859,
541.9400024,46.06155014,541.9400024,46.72714615,541.9400024,46.12320709,541.9400024,47.00714111,541.9400024,47.40743256,541.9400024,48.82077789,541.9400024,48.14681244,541.9400024,49.8013649,541.9400024,46.84582138,541.9400024,2.41178441,
542.9799805,43.95415497,542.9799805,45.88869858,542.9799805,44.18665695,542.9799805,46.44894028,542.9799805,45.42669678,542.9799805,44.63750839,542.9799805,46.75403214,542.9799805,48.16013336,542.9799805,45.54504013,542.9799805,2.322747707,
544.0200195,43.70570755,544.0200195,45.01619339,544.0200195,41.93122864,544.0200195,45.4805336,544.0200195,44.04989624,544.0200195,43.53879929,544.0200195,44.71057892,544.0200195,46.10284424,544.0200195,43.08463287,544.0200195,2.255705357,
545.0700073,40.50070953,545.0700073,42.55077362,545.0700073,41.20529938,545.0700073,41.54678726,545.0700073,41.30744553,545.0700073,42.57556534,545.0700073,43.45703888,545.0700073,45.15174103,545.0700073,42.24569321,545.0700073,2.215172052,
545.9699707,39.9788208,545.9699707,41.31170654,545.9699707,40.56977844,545.9699707,41.21867371,545.9699707,41.1708374,545.9699707,42.72438049,545.9699707,41.24933243,545.9699707,43.515728,545.9699707,41.70084,545.9699707,2.365756989,
547.0100098,40.58454514,547.0100098,39.41916275,547.0100098,40.33138657,547.0100098,41.19581604,547.0100098,39.33998871,547.0100098,40.15404892,547.0100098,40.1601944,547.0100098,41.39762497,547.0100098,38.67645645,547.0100098,2.219813108,
548.0499878,37.0136528,548.0499878,38.54906845,548.0499878,37.66407394,548.0499878,38.73510742,548.0499878,39.93727112,548.0499878,37.63963699,548.0499878,40.121521,548.0499878,42.08894348,548.0499878,37.82062149,548.0499878,2.236390591,
548.9500122,37.34288788,548.9500122,36.73058319,548.9500122,36.60432053,548.9500122,36.92433548,548.9500122,38.13274765,548.9500122,37.86151123,548.9500122,38.78359222,548.9500122,39.91746521,548.9500122,36.49441528,548.9500122,2.392297506,
550,34.96476364,550,36.46461868,550,34.83456421,550,37.20669174,550,36.7625351,550,34.20376968,550,36.08927917,550,36.90887833,550,35.19429398,550,2.135991335,

Sample E1,
Sample E1
Collection Time: 21-May-24 3:01:40 PM
Operator Name  :
Scan Software Version: 1.2(147)
Parameter List :
Instrument                        Cary Eclipse
Instrument Serial Number          MY18160001
Data mode                         Fluorescence
Scan mode                         Emission
X Mode                            Wavelength (nm)
Start (nm)                        400.00
Stop (nm)                         550.00
Ex. Wavelength (nm)               350.00
Ex. Slit (nm)                     10
Em. Slit (nm)                     10
Scan rate (nm/min)                600.00
Data interval (nm)                1.0000
Averaging Time (s)                0.1000
Excitation filter                 Auto
Emission filter                   Open
PMT voltage (V)                   Medium
Corrected spectra                 OFF
Wellplate                         ON
Plate format                     96 Wells
Read position                    Well centre
Multi-zero                       OFF
Auto-zero                        OFF
Well                            A1
Method Log     :
Method Name    : Default
Date/Time stamp: 21-May-24 3:01:01 PM
Method Modifications:
Well plate reader Changed: 21-May-24 3:01:37 PM, Old:OFF, New:ON
Ex. Slit Width (nm): Changed: 21-May-24 3:01:37 PM, Old:5, New:10
Em. Slit Width (nm): Changed: 21-May-24 3:01:37 PM, Old:5, New:10
Stop Wavelength Changed: 21-May-24 3:01:37 PM, Old: 600.00, New: 550.00
Wellplate Samples Changed: 21-May-24 3:01:37 PM, Old:, New:E1;E2;E3;E4;E5;E6;E7;E8;E9;E10;
End Method Modifications

Sample E2,
Sample E2
Collection Time: 21-May-24 3:02:09 PM
Operator Name  :
Scan Software Version: 1.2(147)
Parameter List :
Instrument                        Cary Eclipse
Instrument Serial Number          MY18160001
Data mode                         Fluorescence
Scan mode                         Emission
X Mode                            Wavelength (nm)
Start (nm)                        400.00
Stop (nm)                         550.00
Ex. Wavelength (nm)               350.00
Ex. Slit (nm)                     10
Em. Slit (nm)                     10
Scan rate (nm/min)                600.00
Data interval (nm)                1.0000
Averaging Time (s)                0.1000
Excitation filter                 Auto
Emission filter                   Open
PMT voltage (V)                   Medium
Corrected spectra                 OFF
Wellplate                         ON
Plate format                     96 Wells
Read position                    Well centre
Multi-zero                       OFF
Auto-zero                        OFF
Well                            A1
Method Log     :
Method Name    : Default
Date/Time stamp: 21-May-24 3:01:01 PM
Method Modifications:
Well plate reader Changed: 21-May-24 3:01:37 PM, Old:OFF, New:ON
Ex. Slit Width (nm): Changed: 21-May-24 3:01:37 PM, Old:5, New:10
Em. Slit Width (nm): Changed: 21-May-24 3:01:37 PM, Old:5, New:10
Stop Wavelength Changed: 21-May-24 3:01:37 PM, Old: 600.00, New: 550.00
Wellplate Samples Changed: 21-May-24 3:01:37 PM, Old:, New:E1;E2;E3;E4;E5;E6;E7;E8;E9;E10;
End Method Modifications

Sample E3,
Sample E3
Collection Time: 21-May-24 3:02:26 PM
Operator Name  :
Scan Software Version: 1.2(147)
Parameter List :
Instrument                        Cary Eclipse
Instrument Serial Number          MY18160001
Data mode                         Fluorescence
Scan mode                         Emission
X Mode                            Wavelength (nm)
Start (nm)                        400.00
Stop (nm)                         550.00
Ex. Wavelength (nm)               350.00
Ex. Slit (nm)                     10
Em. Slit (nm)                     10
Scan rate (nm/min)                600.00
Data interval (nm)                1.0000
Averaging Time (s)                0.1000
Excitation filter                 Auto
Emission filter                   Open
PMT voltage (V)                   Medium
Corrected spectra                 OFF
Wellplate                         ON
Plate format                     96 Wells
Read position                    Well centre
Multi-zero                       OFF
Auto-zero                        OFF
Well                            A1
Method Log     :
Method Name    : Default
Date/Time stamp: 21-May-24 3:01:01 PM
Method Modifications:
Well plate reader Changed: 21-May-24 3:01:37 PM, Old:OFF, New:ON
Ex. Slit Width (nm): Changed: 21-May-24 3:01:37 PM, Old:5, New:10
Em. Slit Width (nm): Changed: 21-May-24 3:01:37 PM, Old:5, New:10
Stop Wavelength Changed: 21-May-24 3:01:37 PM, Old: 600.00, New: 550.00
Wellplate Samples Changed: 21-May-24 3:01:37 PM, Old:, New:E1;E2;E3;E4;E5;E6;E7;E8;E9;E10;
End Method Modifications

Sample E4,
Sample E4
Collection Time: 21-May-24 3:02:42 PM
Operator Name  :
Scan Software Version: 1.2(147)
Parameter List :
Instrument                        Cary Eclipse
Instrument Serial Number          MY18160001
Data mode                         Fluorescence
Scan mode                         Emission
X Mode                            Wavelength (nm)
Start (nm)                        400.00
Stop (nm)                         550.00
Ex. Wavelength (nm)               350.00
Ex. Slit (nm)                     10
Em. Slit (nm)                     10
Scan rate (nm/min)                600.00
Data interval (nm)                1.0000
Averaging Time (s)                0.1000
Excitation filter                 Auto
Emission filter                   Open
PMT voltage (V)                   Medium
Corrected spectra                 OFF
Wellplate                         ON
Plate format                     96 Wells
Read position                    Well centre
Multi-zero                       OFF
Auto-zero                        OFF
Well                            A1
Method Log     :
Method Name    : Default
Date/Time stamp: 21-May-24 3:01:01 PM
Method Modifications:
Well plate reader Changed: 21-May-24 3:01:37 PM, Old:OFF, New:ON
Ex. Slit Width (nm): Changed: 21-May-24 3:01:37 PM, Old:5, New:10
Em. Slit Width (nm): Changed: 21-May-24 3:01:37 PM, Old:5, New:10
Stop Wavelength Changed: 21-May-24 3:01:37 PM, Old: 600.00, New: 550.00
Wellplate Samples Changed: 21-May-24 3:01:37 PM, Old:, New:E1;E2;E3;E4;E5;E6;E7;E8;E9;E10;
End Method Modifications

Sample E5,
Sample E5
Collection Time: 21-May-24 3:02:59 PM
Operator Name  :
Scan Software Version: 1.2(147)
Parameter List :
Instrument                        Cary Eclipse
Instrument Serial Number          MY18160001
Data mode                         Fluorescence
Scan mode                         Emission
X Mode                            Wavelength (nm)
Start (nm)                        400.00
Stop (nm)                         550.00
Ex. Wavelength (nm)               350.00
Ex. Slit (nm)                     10
Em. Slit (nm)                     10
Scan rate (nm/min)                600.00
Data interval (nm)                1.0000
Averaging Time (s)                0.1000
Excitation filter                 Auto
Emission filter                   Open
PMT voltage (V)                   Medium
Corrected spectra                 OFF
Wellplate                         ON
Plate format                     96 Wells
Read position                    Well centre
Multi-zero                       OFF
Auto-zero                        OFF
Well                            A1
Method Log     :
Method Name    : Default
Date/Time stamp: 21-May-24 3:01:01 PM
Method Modifications:
Well plate reader Changed: 21-May-24 3:01:37 PM, Old:OFF, New:ON
Ex. Slit Width (nm): Changed: 21-May-24 3:01:37 PM, Old:5, New:10
Em. Slit Width (nm): Changed: 21-May-24 3:01:37 PM, Old:5, New:10
Stop Wavelength Changed: 21-May-24 3:01:37 PM, Old: 600.00, New: 550.00
Wellplate Samples Changed: 21-May-24 3:01:37 PM, Old:, New:E1;E2;E3;E4;E5;E6;E7;E8;E9;E10;
End Method Modifications

Sample E6,
Sample E6
Collection Time: 21-May-24 3:03:15 PM
Operator Name  :
Scan Software Version: 1.2(147)
Parameter List :
Instrument                        Cary Eclipse
Instrument Serial Number          MY18160001
Data mode                         Fluorescence
Scan mode                         Emission
X Mode                            Wavelength (nm)
Start (nm)                        400.00
Stop (nm)                         550.00
Ex. Wavelength (nm)               350.00
Ex. Slit (nm)                     10
Em. Slit (nm)                     10
Scan rate (nm/min)                600.00
Data interval (nm)                1.0000
Averaging Time (s)                0.1000
Excitation filter                 Auto
Emission filter                   Open
PMT voltage (V)                   Medium
Corrected spectra                 OFF
Wellplate                         ON
Plate format                     96 Wells
Read position                    Well centre
Multi-zero                       OFF
Auto-zero                        OFF
Well                            A1
Method Log     :
Method Name    : Default
Date/Time stamp: 21-May-24 3:01:01 PM
Method Modifications:
Well plate reader Changed: 21-May-24 3:01:37 PM, Old:OFF, New:ON
Ex. Slit Width (nm): Changed: 21-May-24 3:01:37 PM, Old:5, New:10
Em. Slit Width (nm): Changed: 21-May-24 3:01:37 PM, Old:5, New:10
Stop Wavelength Changed: 21-May-24 3:01:37 PM, Old: 600.00, New: 550.00
Wellplate Samples Changed: 21-May-24 3:01:37 PM, Old:, New:E1;E2;E3;E4;E5;E6;E7;E8;E9;E10;
End Method Modifications

Sample E7,
Sample E7
Collection Time: 21-May-24 3:03:32 PM
Operator Name  :
Scan Software Version: 1.2(147)
Parameter List :
Instrument                        Cary Eclipse
Instrument Serial Number          MY18160001
Data mode                         Fluorescence
Scan mode                         Emission
X Mode                            Wavelength (nm)
Start (nm)                        400.00
Stop (nm)                         550.00
Ex. Wavelength (nm)               350.00
Ex. Slit (nm)                     10
Em. Slit (nm)                     10
Scan rate (nm/min)                600.00
Data interval (nm)                1.0000
Averaging Time (s)                0.1000
Excitation filter                 Auto
Emission filter                   Open
PMT voltage (V)                   Medium
Corrected spectra                 OFF
Wellplate                         ON
Plate format                     96 Wells
Read position                    Well centre
Multi-zero                       OFF
Auto-zero                        OFF
Well                            A1
Method Log     :
Method Name    : Default
Date/Time stamp: 21-May-24 3:01:01 PM
Method Modifications:
Well plate reader Changed: 21-May-24 3:01:37 PM, Old:OFF, New:ON
Ex. Slit Width (nm): Changed: 21-May-24 3:01:37 PM, Old:5, New:10
Em. Slit Width (nm): Changed: 21-May-24 3:01:37 PM, Old:5, New:10
Stop Wavelength Changed: 21-May-24 3:01:37 PM, Old: 600.00, New: 550.00
Wellplate Samples Changed: 21-May-24 3:01:37 PM, Old:, New:E1;E2;E3;E4;E5;E6;E7;E8;E9;E10;
End Method Modifications

Sample E8,
Sample E8
Collection Time: 21-May-24 3:03:48 PM
Operator Name  :
Scan Software Version: 1.2(147)
Parameter List :
Instrument                        Cary Eclipse
Instrument Serial Number          MY18160001
Data mode                         Fluorescence
Scan mode                         Emission
X Mode                            Wavelength (nm)
Start (nm)                        400.00
Stop (nm)                         550.00
Ex. Wavelength (nm)               350.00
Ex. Slit (nm)                     10
Em. Slit (nm)                     10
Scan rate (nm/min)                600.00
Data interval (nm)                1.0000
Averaging Time (s)                0.1000
Excitation filter                 Auto
Emission filter                   Open
PMT voltage (V)                   Medium
Corrected spectra                 OFF
Wellplate                         ON
Plate format                     96 Wells
Read position                    Well centre
Multi-zero                       OFF
Auto-zero                        OFF
Well                            A1
Method Log     :
Method Name    : Default
Date/Time stamp: 21-May-24 3:01:01 PM
Method Modifications:
Well plate reader Changed: 21-May-24 3:01:37 PM, Old:OFF, New:ON
Ex. Slit Width (nm): Changed: 21-May-24 3:01:37 PM, Old:5, New:10
Em. Slit Width (nm): Changed: 21-May-24 3:01:37 PM, Old:5, New:10
Stop Wavelength Changed: 21-May-24 3:01:37 PM, Old: 600.00, New: 550.00
Wellplate Samples Changed: 21-May-24 3:01:37 PM, Old:, New:E1;E2;E3;E4;E5;E6;E7;E8;E9;E10;
End Method Modifications

Sample E9,
Sample E9
Collection Time: 21-May-24 3:04:05 PM
Operator Name  :
Scan Software Version: 1.2(147)
Parameter List :
Instrument                        Cary Eclipse
Instrument Serial Number          MY18160001
Data mode                         Fluorescence
Scan mode                         Emission
X Mode                            Wavelength (nm)
Start (nm)                        400.00
Stop (nm)                         550.00
Ex. Wavelength (nm)               350.00
Ex. Slit (nm)                     10
Em. Slit (nm)                     10
Scan rate (nm/min)                600.00
Data interval (nm)                1.0000
Averaging Time (s)                0.1000
Excitation filter                 Auto
Emission filter                   Open
PMT voltage (V)                   Medium
Corrected spectra                 OFF
Wellplate                         ON
Plate format                     96 Wells
Read position                    Well centre
Multi-zero                       OFF
Auto-zero                        OFF
Well                            A1
Method Log     :
Method Name    : Default
Date/Time stamp: 21-May-24 3:01:01 PM
Method Modifications:
Well plate reader Changed: 21-May-24 3:01:37 PM, Old:OFF, New:ON
Ex. Slit Width (nm): Changed: 21-May-24 3:01:37 PM, Old:5, New:10
Em. Slit Width (nm): Changed: 21-May-24 3:01:37 PM, Old:5, New:10
Stop Wavelength Changed: 21-May-24 3:01:37 PM, Old: 600.00, New: 550.00
Wellplate Samples Changed: 21-May-24 3:01:37 PM, Old:, New:E1;E2;E3;E4;E5;E6;E7;E8;E9;E10;
End Method Modifications

Sample E10,
Sample E10
Collection Time: 21-May-24 3:04:21 PM
Operator Name  :
Scan Software Version: 1.2(147)
Parameter List :
Instrument                        Cary Eclipse
Instrument Serial Number          MY18160001
Data mode                         Fluorescence
Scan mode                         Emission
X Mode                            Wavelength (nm)
Start (nm)                        400.00
Stop (nm)                         550.00
Ex. Wavelength (nm)               350.00
Ex. Slit (nm)                     10
Em. Slit (nm)                     10
Scan rate (nm/min)                600.00
Data interval (nm)                1.0000
Averaging Time (s)                0.1000
Excitation filter                 Auto
Emission filter                   Open
PMT voltage (V)                   Medium
Corrected spectra                 OFF
Wellplate                         ON
Plate format                     96 Wells
Read position                    Well centre
Multi-zero                       OFF
Auto-zero                        OFF
Well                            A1
Method Log     :
Method Name    : Default
Date/Time stamp: 21-May-24 3:01:01 PM
Method Modifications:
Well plate reader Changed: 21-May-24 3:01:37 PM, Old:OFF, New:ON
Ex. Slit Width (nm): Changed: 21-May-24 3:01:37 PM, Old:5, New:10
Em. Slit Width (nm): Changed: 21-May-24 3:01:37 PM, Old:5, New:10
Stop Wavelength Changed: 21-May-24 3:01:37 PM, Old: 600.00, New: 550.00
Wellplate Samples Changed: 21-May-24 3:01:37 PM, Old:, New:E1;E2;E3;E4;E5;E6;E7;E8;E9;E10;
End Method Modifications

